,0,1,2,3,4,5,6,7,8,9,10,11,12,13,14,15,16,17,18,19,20,21,22,23,24,25,26,27,28,29,30,31,32,33,34,35,36,37,38,39
0,2.0,0.09306012633697656,0.09869980587017337,0.09998958340323173,0.10599194428034932,0.10547166869486344,0.09508170683761445,0.0925923198952208,0.09343327051645711,0.09176802718052494,0.091099598931124,0.09280708181574643,0.0935159252248826,0.09359938636429974,0.09339581205567472,0.09191325797389349,0.09087442902419414,0.09196866319171816,0.09273806259250829,0.09191844889723844,0.09259459283350344,0.09356517709490877,0.09374619430426961,0.09307074559960293,0.09185646625411852,0.09211878807274222,0.09236861560426658,0.09241622520227087,0.09447812727902548,0.0958914261165065,0.09693889022311548,0.09740878164338795,0.09636106260649133,0.09603521243428846,0.09575002474739323,0.09399562992728877,0.09410786173266121,0.09174180132991358,0.1032271852038863,
1,3.0,0.20957126553087407,0.20488082019625634,0.20825663781395592,0.20731881605132263,0.20639047002472483,0.20923097501795698,0.20686405900431565,0.20917453308877917,0.2116315854112133,0.21550304036242787,0.21434964554191124,0.20427078179062372,0.20541522129525547,0.20811336871759245,0.20767839395626883,0.2080430567153276,0.20993602385546137,0.2085356179703364,0.214068238868241,0.21454664884630859,0.20632646073015062,0.2069151790753208,0.2075253883522795,0.20596733051674837,0.2029670261767407,0.20428468880378378,0.20868806905577425,0.20602923911428392,0.20566961279246126,0.20755357665275853,0.20822040037802225,0.20990915689471548,0.2056198632461593,0.20292711136547226,0.2072923609591699,0.20733299874482394,0.20449921330633355,,
2,4.0,0.21372186527613812,0.2065859192528904,0.20007801520779964,0.1994392195390307,0.19823934856968423,0.19590746381883678,0.1942800983180214,0.19719175636173608,0.19766079062386668,0.19450672758047372,0.1941728631504451,0.19911122287715155,0.20661316940307534,0.20293124270931095,0.19338712286361198,0.19046877969333514,0.1940416829257356,0.1955237232965776,0.20322706708606159,0.206724740743989,0.19595471415288215,0.19031340853850134,0.1927453110227764,0.19268339278478888,0.1929959290782265,0.192255862368608,0.19055727251953375,0.1894516081936911,0.18943222431146256,0.20183053390201353,0.2112956614844773,0.20866192989194862,0.1992439585135484,0.1943813384322254,0.19245604633938743,0.1911948536009996,0.1928454248001206,0.19396203418333752,
3,5.0,0.22212212182688224,0.22542245820154194,0.22451020922529227,0.21763430329922256,0.21762939451267233,0.21668234042471224,0.21341562383819315,0.21608921113012414,0.2185708116293699,0.21663298234837713,0.21387074733254552,0.20938957292729352,0.20935073933049017,0.21208588385731764,0.21412910777081587,0.21481493715913466,0.21473647886544647,0.21297193097351336,0.21227572316442317,0.2107234314339456,0.20873370087300266,0.2149001581546897,0.22177597218809542,0.21640986556834726,0.21595424735383892,0.21753320549631264,0.21892408921389783,0.222023228612267,0.21868630465697797,0.22111080670695824,0.2226032322515156,0.21984335340004577,0.21587923602308834,0.21553489082051394,0.2133056695236827,0.2148363971020597,0.21289784863674094,0.2129910013229128,0.2167851435123133
4,6.0,0.2453396551428303,0.24427878435344239,0.24566550425061007,0.24788647062914967,0.24367007182415137,0.24118787777091,0.2444922927182069,0.2435983705290183,0.2394392689824457,0.24133245291715258,0.2414988877968024,0.2398909258842039,0.24223425256367356,0.24174782738537545,0.24122372812700105,0.24168607921140778,0.24173369814896145,0.2418292366738392,0.24176250960708148,0.24777843007675396,0.2500142044611475,0.24188908666912892,0.25126303307018055,0.2646604773822977,0.25898578974722053,0.24784635864057558,0.24315700887781855,0.24561511351672183,0.2562886625069312,0.25323751466265876,0.25209204102555016,0.26169316070874055,0.2624757778420357,0.2551761486117115,0.247307342775838,0.248528811993728,0.25819925334996513,0.25550555514578166,0.24315114094496726
5,7.0,0.2422012114634697,0.23769203138137357,0.2464682908367812,0.25289985455251696,0.2496650508862637,0.24659155412139885,0.24602644115292518,0.24346071708089564,0.2396465472466192,0.2417444467203078,0.2424322980634222,0.23503873797591338,0.24088038878157403,0.23762336431897885,0.23037676977277438,0.23615837042981067,0.2456752462770833,0.23952980848308936,0.22948531195857083,0.24150250730754594,0.2458844926690835,0.2431833552986154,0.24537537850029462,0.24605417337966437,0.23601306813001788,0.23594499602533126,0.24147753852260112,0.24068550827171215,0.24122257020393148,0.23815366492695186,0.2452192521825083,0.24960512418560465,0.254230398720033,0.25548820999606064,0.24160626789464162,0.2324957316570154,0.2423939193081097,0.2391121945298353,0.23096928057628247
6,8.0,0.2152417658954875,0.21695166873207206,0.2195865512453815,0.21755521790037055,0.2154601118579004,0.2194491994820323,0.22130735633405624,0.22104676687596103,0.221628474034224,0.22073059636360923,0.22105241350747476,0.22485022395663085,0.22828205600010196,0.22777570450640056,0.22708372115117176,0.22658834461501715,0.2246300323170792,0.2190556753935836,0.21524352105840397,0.2186308527267449,0.22385666474530827,0.2231679443951886,0.22202963921189367,0.22563936416307123,0.2299275209979987,0.22921252089703853,0.22654981880463543,0.22833404162306375,0.22497315865249443,0.2186099633765341,0.21825128709857755,0.22051818743935356,0.22033500990572283,0.22032608794403888,0.22129973300626718,0.22018282542662757,0.22051174442030244,0.22103191189857585,
7,9.0,0.20567918869140733,0.20419256210964584,0.20416614282052667,0.20245150282517443,0.20254197538448115,0.19996259725253163,0.19760218031527166,0.20415003875793855,0.20709603991709416,0.19687791254241985,0.1988024044019108,0.20004679904597658,0.19710801089154334,0.20284872238194135,0.20604727109403378,0.2044610654151333,0.20394287053370527,0.19711737024447698,0.1910881431133411,0.19651048940214363,0.2033035109883095,0.20731322483644177,0.20322920999716118,0.1978590413336748,0.19493416816770895,0.20221674131449488,0.21125759718302647,0.2099544876354135,0.20421331642691595,0.19734143821594435,0.1940777352718063,0.19338090155413262,0.19381924786694427,0.18950066365246096,0.18370373224214673,0.18041303283471488,0.2001697606732096,0.2169611237334287,0.21309882733801683
8,10.0,0.11620234718622126,0.12876798587424587,0.13478601542174007,0.13511440326014496,0.13526283343161163,0.1340956096531512,0.1342886802256653,0.13582601512643586,0.13993473124056027,0.1416518786817993,0.14103108326129188,0.13916857316011183,0.13750461795685512,0.13690662013309732,0.13611922567311138,0.14364820921434215,0.1518496927219147,0.14656486008029226,0.14851986893519048,0.15337682111847842,0.15870117737446818,0.16649051277775,0.1611577742371906,0.15613906310551642,0.15800003836790874,0.15877717518283505,0.15443559828552111,0.15052270851463778,0.14491499074941855,0.14082326185608468,0.144249199911024,0.15317276847031974,0.15736578595476824,0.15750848112582913,0.15881306932241757,0.15785550854846556,0.15606350964791268,0.1531751597703088,0.15082774021686715
9,11.0,0.23950970993937787,0.23876871892003637,0.24332241595112925,0.24457443903170054,0.24214570517461387,0.2411129199392225,0.24884580808307322,0.25371107445337465,0.2498286825913145,0.2460364130828104,0.24581533220264865,0.2516901634662593,0.2519968275289187,0.24669174227499618,0.24348616893726477,0.24318639240468992,0.24080034939826336,0.23963951347426912,0.24033069545676025,0.24220217148340858,0.24226989715395453,0.24617345373551197,0.24870649044199572,0.2420180129418746,0.23862364793340476,0.2409156739653968,0.24299697678157992,0.2416259685521527,0.23876829842096126,0.23902315589267606,0.24415154550499396,0.25042188333748755,0.24346239320285276,0.23575693468805115,0.23685803347150974,0.24100607898604356,0.24108685920472264,0.2387189643387141,0.24328400564919966
10,13.0,0.19673495222528817,0.19511739751708754,0.20134603643774257,0.2040373358131788,0.19897024725720255,0.19871279918205523,0.1965038504304887,0.1888641178189861,0.19904784325131056,0.21178889807559284,0.21411059633890747,0.2081466555333869,0.20768860537842732,0.2120226207416613,0.2153633714151858,0.214127069772911,0.21278611055270372,0.2186528579004156,0.22032404994887678,0.21678204208374102,0.22043515440494219,0.22952997810919795,0.22899677067734625,0.22278009134132631,0.21398833771042294,0.21358212843484897,0.21788026719309456,0.21212743279018723,0.20504233181641238,0.21062128308665745,0.21263451554007168,0.21377075178975352,0.21251259307370868,0.19754851359863349,0.19887608456549755,0.20527383799697702,0.2051255788022564,0.20463823732545003,0.20151772165537907
11,14.0,0.25584103465703595,0.2495000802303519,0.2502344129204883,0.24936180453162718,0.2519336928657365,0.25242131725817557,0.2460282080958025,0.24933003855630745,0.25195093069125946,0.24879320492754864,0.2525765594967413,0.2553852100645488,0.25148062484034867,0.2520149083099978,0.25511376292035565,0.25402400502999156,0.2543441378340087,0.2528453236059606,0.2485756801103468,0.24894127253394,0.24778820590216966,0.24677682447496235,0.24877433344622552,0.2500251723696754,0.25350167939119406,0.2560557031773156,0.25043721294363586,0.2504030883639994,0.2609704335981954,0.25941200219632776,0.2560420153342018,0.2573690287522388,0.2506968312939547,0.24865043408080278,0.2502657856955469,0.2503171522232392,0.2535272084427942,0.25130657616725455,0.2462307373294178
12,15.0,0.2445904582215627,0.24518233307388515,0.24453027562526755,0.24889637235987697,0.2531153913726506,0.2567992593739284,0.25212766444715756,0.24969695216833634,0.25229750793609484,0.2528312585533301,0.2538336883578694,0.2508987743656635,0.2479552362980301,0.25673428199161985,0.25648288552440873,0.24959430624936543,0.24877413164423187,0.24905966979701286,0.2541539030086083,0.2527931316458772,0.24912591433010658,0.25058083593922587,0.2526295735668061,0.25829773431830977,0.26220210589386395,0.2601660015615129,0.2558997252420757,0.25721680820869897,0.25955931733332055,0.25580650522500653,0.25188754451516215,0.25207055414643076,0.25320959369440443,0.25582213236709905,0.2560887874794471,0.2566799051117023,0.2512628475956839,0.24355174216839232,0.2460445669299544
13,16.0,0.25016389853918947,0.24200385753587678,0.2394386220122839,0.24566884553115614,0.24725273099269757,0.249371225908449,0.249419072389513,0.24278637588744878,0.24182179166096152,0.24161082279739518,0.24323151585364172,0.2443040158590427,0.2478988657578515,0.24847593786719432,0.2557269958006306,0.2570742760015739,0.2522798663373274,0.24630984843433595,0.23704986836943495,0.23707114496417991,0.24506877004486746,0.25373209360053167,0.2542134266616551,0.24732121970391624,0.24039436138038373,0.24400918866811644,0.2504478194740923,0.24544324662219352,0.24337088699632448,0.2494548667429037,0.24833613618042097,0.2431752976522545,0.2411739913570371,0.2429937785131924,0.2486486512505098,0.24675735954233394,0.24366749261650647,0.24992405481248672,0.24855127864858448
14,17.0,0.23483234715876858,0.21819108276296456,0.2216771697506259,0.221247046415535,0.2141712968983836,0.21440072322715817,0.2128386691577069,0.21294493990699004,0.2143589033612537,0.2158456767806545,0.22157136033133487,0.22005095495634555,0.21605428865313914,0.22139907518967258,0.21985077952402965,0.2200204412014482,0.22518129705582018,0.22594438261020505,0.22042623394668778,0.21726405785137723,0.21726081519254883,0.21306212534063187,0.2110438834664217,0.21375552899576797,0.21086485174769423,0.2207214763308155,0.2247602614270789,0.2097234382289626,0.2096993450974459,0.21886174322630236,0.22507173485159856,0.2236507909899859,0.22577725556225395,0.22618621803440778,0.2173724909919087,0.23618795883085536,0.24592765108783124,0.23173824298577414,0.22667541902185423
